#@RPOL@[ANGLE=] 2
# Note: first line starting with "#@RPOL@" is required for automatic 
# 1-D/2-D interpolation and table format switching (default is 1-D).
# The string in brackets identifies how the row with angle values, y,
# (in degrees) has to start, wavelengths being the leading x column.
#
# Angle-dependent reflectivity for ASTRI mirrors.
# Contributed by Giorgia Sironi, 2018-01-17.
#
# Wavelenght[]  0deg    10deg   20deg   30deg   40deg   50deg   60deg   70deg   80deg
#
ANGLE=     0              10              20              30              40              50              60              70              80
#
# x[i]  z[0][i]         z[1][i]         .... 
#
200     0.9353535       0.9349322       0.9332631       0.9291132       0.9202979       0.9033269       0.8731575       0.826811        0.797666
201     0.9348222       0.9343122       0.9323665       0.9277089       0.9180504       0.8997096       0.8674947       0.819169        0.790768
202     0.9342081       0.9336075       0.9313771       0.9261926       0.9156502       0.8958646       0.8614863       0.8107726       0.7786305
203     0.9335186       0.932825        0.9303013       0.9245693       0.9131002       0.8917916       0.8551205       0.8014631       0.759709
204     0.9327374       0.9319478       0.9291205       0.9228166       0.9103714       0.8874512       0.8483336       0.7910298       0.7327166
205     0.9318593       0.9309707       0.9278279       0.9209256       0.9074508       0.8828236       0.8410882       0.7793569       0.6982422
206     0.9309462       0.9299557       0.9264872       0.9189633       0.9044127       0.8779982       0.8334952       0.7666655       0.6619283
207     0.9299505       0.9288544       0.9250473       0.9168727       0.9011894       0.8728899       0.8254442       0.7531255       0.6362923
208     0.928892        0.9276866       0.9235278       0.9146734       0.8978018       0.8675244       0.8169865       0.7394997       0.6361512
209     0.927655        0.9263343       0.9218027       0.9122234       0.8940782       0.8616838       0.8078726       0.726619        0.6643814
210     0.9262572       0.924815        0.919889        0.9095384       0.8900346       0.8553913       0.7982146       0.7162241       0.7091346
211     0.9244882       0.9229009       0.9175021       0.9062197       0.8850641       0.8476894       0.7866801       0.7099175       0.7632392
212     0.9225369       0.9207955       0.9148926       0.9026132       0.8796913       0.8394416       0.7750212       0.7117384       0.80822
213     0.9203376       0.9184312       0.9119873       0.898635        0.8738177       0.8305586       0.7636106       0.7216153       0.8421518
214     0.9179389       0.9158569       0.9088359       0.8943382       0.8675095       0.8211836       0.7532864       0.737884        0.8672914
215     0.9153127       0.9130442       0.9054094       0.8896934       0.8607446       0.8113717       0.7447638       0.7573465       0.885818
216     0.9125115       0.9100461       0.9017635       0.8847645       0.8536164       0.8013757       0.7389834       0.7775635       0.8997985
217     0.9095045       0.9068292       0.897856        0.8794946       0.8460603       0.7912642       0.7364965       0.7971088       0.9107556
218     0.9063387       0.9034401       0.893733        0.873934        0.8381638       0.7813976       0.7379331       0.8154035       0.9196872
219     0.9030073       0.8998717       0.8893867       0.8680797       0.8299711       0.7721414       0.7432996       0.8320061       0.9271126
220     0.8993902       0.8960013       0.8846882       0.8617973       0.8213796       0.7636624       0.7516105       0.846391        0.9332024
221     0.8955094       0.8918533       0.8796705       0.8551462       0.8125476       0.7564414       0.7619216       0.8586382       0.9382174
222     0.8912369       0.8872957       0.8741904       0.8479714       0.8033575       0.7505276       0.773043        0.868895        0.9423233
223     0.8865854       0.8823415       0.868264        0.8403103       0.7939642       0.7462817       0.7844139       0.8775897       0.9457552
224     0.8815673       0.8770035       0.8619088       0.8322106       0.7845678       0.7440309       0.795721        0.8851124       0.9487016
225     0.8761759       0.8712762       0.8551271       0.8237138       0.7753773       0.7438863       0.8066249       0.8916676       0.9512568
226     0.8704143       0.8651653       0.8479388       0.814898        0.7666674       0.7458363       0.8169335       0.8974278       0.9534966
227     0.8642423       0.8586314       0.8403136       0.8057881       0.758654        0.7497142       0.8266141       0.9025602       0.955488
228     0.8576965       0.8517171       0.8323209       0.7965418       0.7516722       0.7552464       0.8356099       0.907154        0.9572669
229     0.8507725       0.8444233       0.8239883       0.7872796       0.7459775       0.7620763       0.8439267       0.9112885       0.9588637
230     0.8435597       0.8368502       0.8154591       0.7782621       0.7418939       0.7699037       0.8516359       0.9150531       0.960316
231     0.8361986       0.8291526       0.8069421       0.7698109       0.7396384       0.7783263       0.8587291       0.9184782       0.961637
232     0.8284743       0.8211161       0.7982375       0.7617944       0.7389924       0.7869691       0.8652305       0.9215805       0.9628255
233     0.8203737       0.8127387       0.7893899       0.7543504       0.739884        0.7955719       0.8711631       0.9243791       0.9638866
234     0.8119681       0.8041082       0.7805489       0.7477238       0.7422927       0.8040451       0.8766221       0.926931        0.9648446
235     0.8030087       0.7949815       0.7714995       0.7417123       0.7456733       0.8119682       0.8814504       0.9291394       0.9656487
236     0.7939355       0.7858307       0.762808        0.7369261       0.7502401       0.8195731       0.88589         0.9311523       0.9663709
237     0.7847192       0.7766419       0.754509        0.7333785       0.7557353       0.8268245       0.8899786       0.9329843       0.9670141
238     0.7755155       0.7675935       0.7468358       0.7312344       0.7620312       0.8337645       0.8937878       0.9346756       0.9675963
239     0.7666238       0.7590079       0.7401523       0.7307226       0.7690837       0.8404931       0.8974163       0.9362866       0.9681468
240     0.7581607       0.7510152       0.7345931       0.7317873       0.7766622       0.8469731       0.9008638       0.9378148       0.9686636
241     0.7502511       0.7437431       0.7302385       0.7342353       0.7844464       0.8530899       0.9040772       0.9392296       0.969132
242     0.743062        0.7373644       0.7272298       0.7380246       0.7924112       0.8589417       0.9071277       0.940569        0.9695684
243     0.7366738       0.7319535       0.7255666       0.7429401       0.8003875       0.8644969       0.9100013       0.9418212       0.9699655
244     0.7311868       0.7275914       0.725214        0.7487306       0.8082065       0.8697115       0.9126757       0.9429714       0.9703155
245     0.7267911       0.7244482       0.7262361       0.7553103       0.8158804       0.8746533       0.915198        0.9440465       0.9706309
246     0.7236532       0.722657        0.728629        0.76254         0.8233774       0.8793491       0.9175896       0.9450601       0.9709183
247     0.72186         0.7222683       0.7323205       0.7702809       0.8306835       0.883827        0.9198691       0.9460212       0.9711813
248     0.721438        0.7232635       0.7371644       0.7783509       0.8377447       0.8880802       0.922033        0.9469268       0.9714179
249     0.7226924       0.7259142       0.7433424       0.7869168       0.8447709       0.892275        0.9241922       0.9478469       0.9716632
250     0.7253056       0.7298452       0.7503643       0.7955332       0.8514948       0.8962495       0.9262405       0.9487136       0.9718827
251     0.7296652       0.7354632       0.7586764       0.8046729       0.8582952       0.9002187       0.9282688       0.9495393       0.9720561
252     0.7352561       0.7421434       0.767462        0.8135859       0.8647014       0.9039338       0.930165        0.950296        0.9721933
253     0.7419455       0.7497335       0.7765789       0.8222415       0.8707529       0.9074313       0.9319526       0.9509982       0.9723012
254     0.7490169       0.7575119       0.78537         0.8301822       0.8761681       0.9105232       0.9334991       0.9515563       0.9723324
255     0.7567717       0.76579         0.7941922       0.8377989       0.8812709       0.9134341       0.9349556       0.9520677       0.9723366
256     0.7649912       0.7743586       0.8028968       0.8450386       0.886053        0.9161622       0.9363208       0.9525325       0.9723141
257     0.7735467       0.7831091       0.811444        0.8519346       0.8905604       0.9187371       0.9376101       0.9529572       0.9722662
258     0.7822853       0.7919073       0.8197621       0.8584809       0.8948065       0.921169        0.9388296       0.9533458       0.9721951
259     0.7914865       0.8010408       0.8281528       0.8649584       0.8990082       0.9236123       0.9400901       0.9537753       0.9721419
260     0.8007673       0.8101524       0.836337        0.8711798       0.9030403       0.9259787       0.9413275       0.9542013       0.9720829
261     0.8098071       0.8189498       0.8440968       0.8770047       0.9068098       0.9282018       0.9424939       0.9545923       0.9720021
262     0.8185695       0.8274148       0.8514524       0.8824709       0.910345        0.9302958       0.9435939       0.9549467       0.9718957
263     0.8270135       0.8355223       0.858411        0.8876029       0.913667        0.9322741       0.9446362       0.955271        0.9717672
264     0.8350074       0.8431585       0.864898        0.8923555       0.916742        0.9341079       0.9455957       0.9555447       0.9716038
265     0.8422664       0.8500625       0.8707075       0.8965751       0.919452        0.935702        0.9463939       0.9557055       0.9713671
266     0.8491412       0.8565773       0.8761514       0.9005158       0.9219882       0.9372006       0.9471433       0.9558401       0.9711091
267     0.8556517       0.8627286       0.8812634       0.904208        0.9243703       0.9386134       0.9478474       0.955948        0.9708272
268     0.8617893       0.8685132       0.8860494       0.9076592       0.9266019       0.9399406       0.9485044       0.9560269       0.9705191
269     0.8675934       0.873973        0.8905516       0.9109048       0.9287081       0.9411993       0.9491267       0.9560856       0.9701896
270     0.8731576       0.8791997       0.8948544       0.9140134       0.9307404       0.9424282       0.9497445       0.956148        0.9698527
271     0.8784605       0.8841764       0.8989487       0.9169807       0.9326964       0.9436267       0.95036         0.9562201       0.9695159
272     0.8834529       0.8888573       0.9027952       0.9197725       0.9345446       0.9447647       0.950944        0.9562738       0.9691574
273     0.8881483       0.8932566       0.9064079       0.9223988       0.9362903       0.9458443       0.9514966       0.9563085       0.968776
274     0.8925624       0.8973902       0.9098015       0.9248705       0.9379401       0.9468687       0.9520195       0.9563248       0.9683712
275     0.8967127       0.9012756       0.9129917       0.9271992       0.9395009       0.9478422       0.952515        0.9563246       0.9679438
276     0.9005533       0.9048693       0.9159409       0.9293535       0.9409466       0.9487425       0.9529647       0.9562938       0.9674859
277     0.9041281       0.9082134       0.918685        0.9313598       0.9422946       0.9495804       0.9533744       0.9562341       0.9669956
278     0.9074926       0.9113608       0.9212697       0.9332542       0.9435723       0.9503772       0.9537617       0.95616         0.9664813
279     0.91066         0.9143241       0.9237052       0.9350436       0.9447835       0.9511345       0.9541269       0.9560712       0.9659418
280     0.9136425       0.9171148       0.9260011       0.9367345       0.945932        0.9518542       0.9544706       0.9559677       0.965376
281     0.916446        0.9197391       0.9281634       0.9383324       0.9470224       0.9525412       0.9547992       0.9558592       0.9647963
282     0.9191101       0.9222338       0.9302227       0.9398599       0.9480706       0.953206        0.9551191       0.9557474       0.9641978
283     0.9216927       0.9246547       0.9322277       0.9413572       0.9491095       0.9538767       0.9554556       0.9556554       0.9635966
284     0.9241283       0.9269385       0.9341219       0.9427754       0.9500968       0.9545155       0.9557738       0.9555514       0.9629693
285     0.9264266       0.9290944       0.9359124       0.9441193       0.9510353       0.9551241       0.9560744       0.9554357       0.9623153
286     0.9285597       0.9310955       0.9375748       0.9453677       0.9519066       0.9556862       0.9563432       0.955297        0.9616288
287     0.9305753       0.932987        0.9391482       0.946552        0.9527354       0.9562214       0.956596        0.9551473       0.9609143
288     0.9324811       0.9347762       0.9406386       0.9476764       0.9535241       0.9567312       0.9568337       0.9549872       0.9601714
289     0.9342241       0.936412        0.9419992       0.9486994       0.9542363       0.957182        0.9570242       0.9547861       0.959377
290     0.935845        0.9379329       0.9432638       0.9496492       0.9548948       0.9575933       0.9571846       0.9545594       0.9585409
291     0.9373815       0.9393756       0.9444658       0.9505549       0.9555253       0.9579891       0.9573398       0.9543354       0.9576934
292     0.9388355       0.9407412       0.9456045       0.9514138       0.9561236       0.9583632       0.9574808       0.9541003       0.9568137
293     0.9402053       0.942028        0.9466778       0.9522235       0.9566866       0.9587124       0.957604        0.9538505       0.9558979
294     0.9415064       0.9432505       0.9476985       0.9529945       0.957223        0.9590441       0.9577165       0.9535926       0.9549503
295     0.9427429       0.9444127       0.9486697       0.953729        0.9577343       0.959359        0.9578185       0.9533267       0.9539701
296     0.9439237       0.9455232       0.9495989       0.9544333       0.958226        0.9596627       0.9579159       0.9530601       0.9529647
297     0.9450507       0.9465833       0.950487        0.9551075       0.9586971       0.9599531       0.9580056       0.9527881       0.951927
298     0.946123        0.9475923       0.9513329       0.9557502       0.9591461       0.9602284       0.9580856       0.952509        0.9508552
299     0.9471464       0.9485556       0.9521412       0.9563649       0.9595758       0.960491        0.9581579       0.9522244       0.9497498
300     0.9481289       0.9494807       0.9529185       0.9569573       0.9599907       0.9607447       0.9582262       0.951938        0.9486122
301     0.9490686       0.9503663       0.9536641       0.9575274       0.9603917       0.9609917       0.9582948       0.9516605       0.9474695
302     0.9499648       0.9512109       0.9543756       0.9580716       0.9607743       0.9612258       0.9583551       0.9513773       0.9462929
303     0.9508279       0.9520249       0.9550622       0.958598        0.9611452       0.9614533       0.958413        0.9510945       0.9450867
304     0.9516569       0.9528069       0.9557225       0.959105        0.9615029       0.9616724       0.9584667       0.9508103       0.9438492
305     0.9524482       0.9535535       0.9563532       0.9595892       0.961844        0.9618797       0.9585126       0.9505211       0.9425774
306     0.9532001       0.9542629       0.9569525       0.9600491       0.9621671       0.962074        0.9585498       0.9502269       0.9412743
307     0.9539106       0.9549331       0.957518        0.9604817       0.9624686       0.9622509       0.9585727       0.9499198       0.9399268
308     0.9545881       0.9555722       0.9580572       0.9608937       0.9627547       0.9624164       0.9585874       0.9496069       0.9385436
309     0.9552355       0.9561829       0.9585724       0.9612871       0.9630269       0.9625719       0.9585953       0.9492901       0.9371265
310     0.9558527       0.9567651       0.9590634       0.9616615       0.9632847       0.9627164       0.9585953       0.948968        0.9356746
311     0.956412        0.9572918       0.9595053       0.9619943       0.9635077       0.962831        0.9585692       0.9486256       0.9341967
312     0.9569471       0.9577957       0.9599278       0.962312        0.9637193       0.9629372       0.9585374       0.9482803       0.9326883
313     0.957459        0.9582778       0.9603318       0.9626152       0.96392         0.9630353       0.9585          0.9479323       0.9311503
314     0.9579488       0.958739        0.9607179       0.9629044       0.96411         0.9631255       0.9584572       0.9475818       0.9295837
315     0.9584176       0.9591803       0.9610871       0.9631801       0.9642898       0.963208        0.958409        0.947229        0.9279896
316     0.9588661       0.9596024       0.96144         0.9634428       0.9644597       0.963283        0.9583557       0.9468741       0.9263699
317     0.9592953       0.9600062       0.9617772       0.9636931       0.96462         0.9633506       0.9582973       0.9465174       0.9247264
318     0.9597083       0.9603948       0.9621014       0.9639333       0.9647728       0.9634131       0.958236        0.9461618       0.9230642
319     0.9601261       0.9607886       0.9624323       0.9641818       0.9649359       0.9634883       0.9581916       0.9458315       0.921415
320     0.960526        0.9611655       0.9627485       0.9644186       0.9650897       0.9635563       0.9581423       0.9455001       0.9197498
321     0.9609125       0.96153         0.9630549       0.9646486       0.96524         0.963624        0.9580974       0.9451844       0.9181194
322     0.9612829       0.9618792       0.963348        0.9648679       0.9653819       0.9636852       0.9580479       0.9448684       0.9164801
323     0.9616373       0.9622131       0.9636278       0.9650764       0.9655151       0.9637395       0.9579935       0.9445517       0.9148346
324     0.9619768       0.9625328       0.9638954       0.9652748       0.9656404       0.9637875       0.9579348       0.9442351       0.9131866
325     0.962302        0.962839        0.9641512       0.9654637       0.9657579       0.9638295       0.9578717       0.9439189       0.9115396
326     0.9626115       0.9631302       0.9643937       0.9656416       0.9658667       0.9638645       0.9578038       0.9436032       0.9099014
327     0.9628926       0.9633938       0.9646109       0.9657966       0.9659546       0.9638794       0.9577156       0.9432675       0.9082427
328     0.9631556       0.96364         0.9648123       0.9659378       0.9660304       0.9638833       0.9576173       0.9429246       0.9065846
329     0.963407        0.9638751       0.965004        0.966071        0.9660996       0.963882        0.9575152       0.942583        0.9049425
330     0.9636472       0.9640996       0.9651863       0.9661964       0.9661625       0.9638755       0.9574095       0.9422427       0.9033209
331     0.9638789       0.964316        0.9653621       0.9663172       0.9662226       0.9638681       0.957306        0.9419144       0.901759
